Distance_(pixels),Gray_Value
0,75.0000
1,73.6544
2,74.0000
3,73.5515
4,74.0764
5,73.8277
6,74.2278
7,73.7638
8,73.2975
9,74.1841
10,75.6573
11,73.9922
12,74.0000
13,71.0103
14,66.4757
15,72.5427
16,74.1901
17,75.4028
18,74.2931
19,75.7729
20,79.2789
21,77.3349
22,77.7500
23,76.7443
24,74.1281
25,70.9375
26,69.5320
27,73.4743
28,74.5300
29,73.2621
30,75.4401
31,76.1306
32,73.6364
33,74.0469
34,75.0932
35,76.0227
36,74.2779
37,73.6697
38,72.0338
39,70.7907
40,70.1157
41,71.7638
42,71.2247
43,72.2986
44,70.2500
45,72.1942
46,72.3257
47,70.6018
48,68.3306
49,68.4456
50,68.5116
51,68.5934
52,68.9504
53,72.7067
54,71.3505
55,71.7031
56,73.9463
57,74.4648
58,73.1769
59,71.3798
60,76.1901
61,77.3107
62,76.8572
63,77.5938
64,75.3223
65,77.3175
66,79.5625
67,82.5234
68,80.0610
69,79.2357
70,79.1774
71,78.0649
72,76.8223
73,78.2873
74,81.0925
75,80.4864
76,80.6829
77,83.0781
78,80.9037
79,79.0068
80,79.2893
81,80.4039
82,80.8858
83,79.3044
84,75.0785
85,76.5114
86,78.4217
87,78.7122
88,79.5000
89,78.5401
90,80.4822
91,78.7105
92,80.9824
93,81.0123
94,82.8314
95,88.3941
96,90.3884
97,90.0239
98,87.9682
99,86.5938
100,86.7252
101,87.6227
102,86.5065
103,86.4760
104,84.4917
105,83.9584
106,84.7704
107,83.5374
108,83.8864
109,81.7336
110,80.1875
111,82.2563
112,84.6777
113,83.1562
114,81.6480
115,82.4186
116,83.9091
117,83.2273
118,84.6965
119,84.2217
120,84.4256
121,82.9844
122,83.3146
123,82.9977
124,80.6632
125,80.0296
126,81.0690
127,81.7401
128,82.0165
129,81.7471
130,80.9620
131,79.5458
132,77.3750
133,77.5101
134,78.5506
135,78.4088
136,75.1488
137,77.1794
138,78.9434
139,79.1193
140,78.6860
141,78.0261
142,78.0759
143,78.2578
144,78.9174
145,79.5932
146,79.9481
147,78.8365
148,78.5424
149,79.9223
150,79.5956
151,80.1675
152,77.8306
153,76.9369
154,77.0938
155,79.8867
156,77.9721
157,79.1648
158,78.8957
159,78.1193
160,79.8099
161,79.0702
162,78.2208
163,79.4307
164,80.7903
165,79.9141
166,83.4881
167,79.4886
168,76.7769
169,75.1307
170,77.0798
171,78.0000
172,78.2169
173,78.1646
174,78.7942
175,79.6708
176,82.0000
