Distance_(pixels),Gray_Value
0,73.0000
1,72.3532
2,73.4672
3,74.8633
4,70.8099
5,68.1032
6,67.2608
7,69.1700
8,75.1901
9,75.9602
10,75.1423
11,75.5312
12,74.0227
13,71.8250
14,70.6105
15,73.5662
16,74.4380
17,75.5326
18,74.9161
19,75.9831
20,75.7490
21,72.2547
22,71.5312
23,74.1664
24,75.4711
25,74.3495
26,75.7660
27,77.8944
28,78.8574
29,75.4205
30,73.0031
31,72.5489
32,70.1570
33,68.1484
34,68.7596
35,70.7840
36,70.5413
37,72.1319
38,73.1139
39,74.3911
40,74.1157
41,74.9231
42,73.9357
43,74.7149
44,72.7500
45,73.0726
46,73.3422
47,72.9486
48,69.8182
49,67.0643
50,66.9194
51,68.1469
52,68.3047
53,69.9329
54,70.7087
55,72.6797
56,74.1612
57,70.5580
58,68.2513
59,71.3612
60,73.7789
61,68.5224
62,68.4569
63,70.1446
64,69.2975
65,70.1190
66,73.0312
67,77.3412
68,76.4628
69,75.3780
70,75.2797
71,78.0033
72,77.9959
73,79.4484
74,79.3959
75,79.8636
76,80.4752
77,82.9922
78,83.7404
79,82.9068
80,83.2479
81,82.7796
82,83.8972
83,84.1809
84,86.5878
85,87.2073
86,87.2045
87,87.5208
88,83.5000
89,82.9164
90,84.6289
91,87.0740
92,89.4907
93,92.8068
94,92.4530
95,87.4066
96,84.0083
97,83.4547
98,89.7141
99,92.3203
100,93.8874
101,94.1318
102,90.8166
103,90.7581
104,89.1116
105,90.8920
106,93.6501
107,91.5909
108,87.6064
109,84.8516
110,80.6875
111,81.5158
112,82.3884
113,88.0572
114,87.2934
115,88.0861
116,87.1043
117,86.7764
118,86.7208
119,86.6455
120,85.9669
121,86.7578
122,87.3709
123,88.0500
124,82.8409
125,80.8186
126,79.8964
127,82.8176
128,83.9669
129,82.3923
130,80.2740
131,81.0170
132,81.2500
133,80.2690
134,81.7601
135,78.0231
136,77.1818
137,74.6501
138,75.3290
139,75.5808
140,75.9174
141,74.9955
142,78.1382
143,79.8125
144,79.6694
145,78.4636
146,78.3409
147,75.4817
148,77.1457
149,80.0795
150,79.9819
151,78.3097
152,75.7934
153,76.5735
154,77.1250
155,75.0956
156,71.6519
157,72.8040
158,75.4703
159,73.2685
160,74.9256
161,74.8738
162,74.3621
163,74.2171
164,74.2283
165,74.9688
166,72.4982
167,72.4840
168,71.1653
169,71.1258
170,72.0790
171,71.0786
172,71.6136
173,74.4602
174,73.0013
175,73.4479
176,75.0000
