Distance_(pixels),Gray_Value
0,75.0000
1,74.1808
2,75.0568
3,77.9061
4,75.8709
5,75.0308
6,75.7265
7,73.2804
8,76.2893
9,76.7807
10,78.9922
11,80.2891
12,76.6880
13,76.6727
14,78.0307
15,80.4212
16,80.9339
17,81.6420
18,78.6544
19,75.9462
20,78.8791
21,83.6200
22,82.9688
23,85.0886
24,82.6240
25,82.2274
26,81.5003
27,82.3197
28,85.4256
29,82.6875
30,78.6803
31,77.5875
32,79.9008
33,83.1641
34,81.3110
35,80.9659
36,79.1054
37,81.2403
38,80.2384
39,80.1005
40,84.6983
41,83.9886
42,82.9166
43,81.8636
44,80.0000
45,81.3109
46,80.0191
47,82.4343
48,84.3140
49,84.9456
50,83.5116
51,79.9988
52,77.6591
53,77.0023
54,76.1986
55,77.6953
56,79.4256
57,78.4717
58,76.3864
59,74.7764
60,75.1043
61,72.5730
62,72.8432
63,74.8407
64,72.4380
65,69.2109
66,70.9375
67,74.8219
68,75.1663
69,74.0711
70,73.0271
71,70.8394
72,69.9256
73,71.8426
74,73.3135
75,74.8863
76,73.5444
77,71.7344
78,69.7404
79,70.9295
80,71.3223
81,71.1810
82,73.9414
83,73.8442
84,75.0558
85,75.5681
86,76.3990
87,79.5164
88,79.5000
89,77.8864
90,75.6844
91,74.5797
92,75.6736
93,74.9991
94,74.9881
95,73.7796
96,74.7190
97,79.0886
98,82.6400
99,82.6328
100,81.4091
101,80.3773
102,79.5586
103,78.0743
104,76.6694
105,76.5885
106,79.7022
107,79.4235
108,76.4494
109,75.6998
110,76.9688
111,78.8804
112,77.9008
113,73.4431
114,74.5819
115,74.9698
116,75.9122
117,75.8113
118,75.0145
119,75.6829
120,72.6901
121,74.0156
122,73.3541
123,73.8181
124,72.3946
125,72.2127
126,72.9664
127,73.6355
128,73.2397
129,71.8465
130,71.1464
131,73.2383
132,74.8750
133,72.9265
134,70.9494
135,70.7638
136,68.8140
137,70.4163
138,74.9641
139,75.3629
140,73.1777
141,73.5535
142,75.2332
143,77.6250
144,79.3802
145,75.6421
146,75.0488
147,75.0637
148,75.4122
149,76.1492
150,75.7934
151,77.5140
152,76.0372
153,75.5291
154,76.4062
155,75.0351
156,73.6446
157,74.7385
158,75.7410
159,76.4611
160,74.8182
161,73.3332
162,70.9300
163,75.7386
164,75.8657
165,75.6562
166,75.9868
167,74.1761
168,73.7686
169,76.3088
170,75.7144
171,74.0852
172,73.6870
173,73.7643
174,74.1098
175,72.1443
176,75.0000
