Distance_(pixels),Gray_Value
0,75.0000
1,74.0855
2,73.3964
3,72.1135
4,72.1488
5,72.2733
6,73.3546
7,75.2302
8,76.8554
9,78.5398
10,78.8014
11,76.9219
12,73.3667
13,74.3647
14,76.7368
15,79.8414
16,78.4380
17,76.6591
18,75.7410
19,77.1053
20,79.2955
21,77.3700
22,78.9688
23,80.3526
24,79.1198
25,74.7931
26,74.3024
27,75.1112
28,76.5620
29,76.5816
30,78.9352
31,81.2000
32,81.3388
33,77.6797
34,77.9104
35,74.4216
36,73.6467
37,76.8510
38,78.7045
39,77.4734
40,78.2025
41,77.7106
42,79.9646
43,80.5120
44,80.1250
45,78.3352
46,76.9406
47,76.5030
48,79.4297
49,77.7557
50,77.0568
51,77.5114
52,77.5868
53,77.9057
54,76.9168
55,77.4453
56,76.4504
57,76.6170
58,78.0666
59,79.1887
60,79.0878
61,81.2916
62,82.0974
63,79.2726
64,79.5372
65,79.5549
66,77.2500
67,77.9659
68,80.5754
69,81.1593
70,82.3680
71,80.4058
72,81.0372
73,82.2004
74,83.5176
75,83.7739
76,81.7789
77,80.3750
78,79.3995
79,77.1478
80,78.5124
81,80.4294
82,79.5584
83,80.1677
84,82.2996
85,81.4436
86,82.2273
87,80.9659
88,83.5000
89,80.6503
90,81.2714
91,83.9375
92,85.5279
93,83.8499
94,80.6604
95,82.3965
96,83.6446
97,80.9046
98,81.3027
99,80.7344
100,83.9287
101,83.1887
102,82.0240
103,82.1765
104,84.8264
105,84.4480
106,83.3068
107,82.9092
108,83.4917
109,82.3295
110,80.2500
111,80.9021
112,80.5455
113,81.9432
114,81.9003
115,83.7964
116,82.1043
117,81.7764
118,79.3897
119,77.4977
120,80.8595
121,79.9453
122,80.1418
123,82.9034
124,81.4184
125,80.1976
126,79.8179
127,77.0374
128,77.3802
129,78.9092
130,80.5289
131,80.5291
132,80.1250
133,77.7216
134,74.8851
135,75.6420
136,77.0785
137,79.2736
138,79.9093
139,80.8742
140,80.0868
141,81.3818
142,78.5155
143,78.2188
144,76.9752
145,76.3875
146,76.6265
147,80.0755
148,81.3017
149,80.9441
150,78.2002
151,77.4744
152,78.1529
153,81.3727
154,79.5000
155,80.2721
156,78.3802
157,80.8208
158,80.4297
159,80.4540
160,76.8843
161,76.7695
162,76.7939
163,76.0261
164,78.3616
165,80.5312
166,80.1346
167,79.3705
168,79.7645
169,81.7525
170,80.1142
171,79.6131
172,76.2045
173,77.6534
174,78.5682
175,79.3011
176,80.0000
