Distance_(pixels),Gray_Value
0,80.0000
1,81.0268
2,79.2588
3,77.5909
4,80.4545
5,79.1519
6,77.2157
7,79.8795
8,80.1322
9,80.6773
10,80.5245
11,79.6641
12,79.2045
13,78.6285
14,82.4370
15,82.2199
16,82.8182
17,81.3083
18,80.8820
19,79.3272
20,81.2128
21,81.1424
22,78.0938
23,80.3734
24,80.0620
25,81.7896
26,81.2934
27,81.2102
28,80.4390
29,77.3328
30,77.9530
31,78.7216
32,79.1570
33,76.7891
34,77.5245
35,78.9795
36,73.8698
37,73.9323
38,74.0225
39,75.3944
40,76.5909
41,76.2105
42,76.2350
43,77.2942
44,75.0000
45,71.5294
46,70.3435
47,73.1874
48,73.4876
49,73.1468
50,71.0801
51,70.6339
52,71.9453
53,73.9239
54,74.7386
55,75.7109
56,76.1694
57,76.9398
58,75.4334
59,74.3348
60,75.6746
61,74.2434
62,72.9502
63,72.8438
64,71.3223
65,72.2377
66,72.9062
67,74.1581
68,72.9928
69,72.2020
70,73.5431
71,72.8547
72,72.7438
73,72.5434
74,73.2874
75,72.7216
76,73.4752
77,75.2812
78,76.3636
79,78.4897
80,79.1074
81,81.2115
82,82.0000
83,79.8935
84,77.4473
85,76.3409
86,73.9786
87,71.4766
88,73.0000
89,75.7708
90,78.9344
91,83.2073
92,82.5072
93,81.3334
94,83.3980
95,86.0207
96,86.1653
97,88.2022
98,88.8732
99,91.1875
100,88.4081
101,85.1306
102,82.6105
103,83.2776
104,80.2107
105,77.6070
106,76.8613
107,79.3183
108,80.8337
109,81.3933
110,79.7500
111,76.8589
112,73.9587
113,71.2359
114,72.5708
115,73.8071
116,77.4504
117,74.6120
118,75.5212
119,75.5989
120,77.6240
121,77.8594
122,78.3709
123,79.0068
124,76.6033
125,73.8612
126,74.9548
127,74.9399
128,75.5289
129,74.7020
130,74.8192
131,73.5584
132,78.6250
133,81.0492
134,76.2412
135,73.6136
136,71.8017
137,73.8645
138,74.2717
139,74.9602
140,78.9773
141,79.8682
142,77.3564
143,76.5781
144,78.2810
145,77.6489
146,77.3489
147,75.9192
148,77.0393
149,75.9139
150,76.8386
151,76.3724
152,76.0041
153,75.9763
154,74.4688
155,73.6982
156,71.6973
157,73.3862
158,74.6658
159,75.8092
160,78.5289
161,77.7747
162,75.0227
163,76.4454
164,76.6839
165,76.9297
166,75.7859
167,74.3534
168,75.1364
169,75.6534
170,72.8750
171,70.6486
172,67.6343
173,69.2218
174,67.0847
175,69.2967
176,78.0000
