Distance_(pixels),Gray_Value
0,47.0000
1,47.5865
2,48.3964
3,47.5879
4,49.7800
5,50.2733
6,51.1614
7,52.3394
8,52.6736
9,53.6852
10,54.1423
11,52.8125
12,49.5248
13,50.3647
14,52.7368
15,54.8755
16,53.3471
17,52.6591
18,51.7410
19,54.5313
20,57.3172
21,56.0230
22,57.2188
23,57.6080
24,56.6653
25,53.7845
26,54.6433
27,56.9360
28,58.5620
29,59.1915
30,62.4824
31,63.5864
32,65.1240
33,62.8906
34,63.7495
35,61.4216
36,60.6467
37,63.9205
38,65.0907
39,63.8436
40,64.5083
41,64.7106
42,66.6364
43,67.2560
44,67.8750
45,67.5291
46,67.8244
47,68.7985
48,72.8264
49,72.7557
50,72.0568
51,72.5114
52,73.0775
53,73.9057
54,74.3773
55,76.8828
56,76.8223
57,77.1010
58,79.3897
59,81.2999
60,82.8667
61,84.0302
62,83.7110
63,80.3862
64,83.4463
65,87.2080
66,88.1875
67,90.9198
68,91.0310
69,90.0970
70,90.3680
71,88.4058
72,87.4008
73,87.2382
74,88.5664
75,89.1557
76,87.1198
77,87.8125
78,87.9109
79,88.0978
80,90.5124
81,92.4432
82,91.6490
83,93.0039
84,94.9308
85,93.4436
86,94.3737
87,93.7670
88,96.5000
89,95.1951
90,96.2714
91,98.7302
92,100.0403
93,98.2647
94,93.9672
95,94.6124
96,94.5950
97,92.7909
98,93.4845
99,92.1172
100,92.0207
101,89.6034
102,88.0597
103,90.3672
104,96.1818
105,97.5535
106,96.3068
107,95.9092
108,96.8244
109,95.3235
110,92.5938
111,92.9021
112,92.0992
113,93.7444
114,93.9003
115,96.4596
116,94.1043
117,93.7764
118,89.6932
119,87.4977
120,90.8595
121,91.6328
122,91.9409
123,90.9784
124,87.4411
125,85.1976
126,85.0452
127,85.0601
128,85.7438
129,86.5030
130,86.8344
131,85.4268
132,84.7500
133,82.7105
134,78.6779
135,76.4744
136,74.9876
137,75.2736
138,76.1813
139,75.1255
140,70.9504
141,71.4830
142,69.5155
143,68.5156
144,65.8595
145,63.0386
146,61.5909
147,63.6096
148,64.7138
149,65.4237
150,65.6501
151,67.0596
152,68.2438
153,69.1628
154,65.7500
155,63.3797
156,59.3802
157,61.8208
158,62.9024
159,62.9653
160,58.8843
161,58.1173
162,56.8166
163,54.7579
164,56.7707
165,57.7344
166,56.1382
167,55.6932
168,55.9256
169,57.8592
170,56.4886
171,55.9061
172,52.2851
173,52.2158
174,53.9166
175,54.1985
176,54.0000
