Distance_(pixels),Gray_Value
0,47.0000
1,47.1815
2,48.6049
3,51.6591
4,49.5455
5,50.1899
6,51.7265
7,49.2577
8,50.5124
9,50.2966
10,52.9923
11,54.2891
12,51.4607
13,52.6727
14,54.0307
15,56.4212
16,55.9422
17,54.7410
18,52.8135
19,50.9462
20,53.8791
21,58.6881
22,59.4688
23,63.0994
24,62.5331
25,64.4460
26,63.7275
27,65.3197
28,68.4256
29,64.8864
30,60.1655
31,58.5932
32,59.9008
33,64.4297
34,64.5914
35,66.7727
36,64.5599
37,66.2403
38,65.4871
39,64.1800
40,68.7851
41,69.7187
42,69.0529
43,69.4539
44,69.1250
45,70.3162
46,66.9295
47,68.6871
48,71.7851
49,76.2022
50,78.9657
51,77.6490
52,76.1911
53,77.0420
54,78.0832
55,80.3203
56,81.7975
57,80.9557
58,79.7094
59,79.6084
60,81.0981
61,79.3158
62,80.0023
63,84.1730
64,84.0248
65,82.8131
66,85.5625
67,87.3503
68,87.8791
69,89.3097
70,91.0682
71,90.4985
72,88.8017
73,90.8048
74,92.2647
75,92.6841
76,91.2035
77,87.2266
78,84.7404
79,86.1636
80,88.1901
81,89.3969
82,92.7598
83,93.8394
84,93.6467
85,92.8208
86,93.4471
87,97.8005
88,98.5000
89,96.9429
90,95.8474
91,94.6111
92,95.4390
93,98.1444
94,98.4762
95,96.8117
96,98.4463
97,102.7386
98,104.6627
99,103.1406
100,101.3884
101,99.6216
102,97.5586
103,96.0743
104,97.5413
105,97.8660
106,99.0160
107,98.4235
108,95.6229
109,93.6437
110,94.7812
111,97.0398
112,96.9008
113,92.4431
114,92.3546
115,92.4650
116,92.6849
117,89.7545
118,86.1281
119,85.4556
120,85.3264
121,86.9453
122,86.4868
123,86.0613
124,84.3760
125,83.2127
126,84.2505
127,88.4139
128,86.1983
129,82.9432
130,81.1565
131,81.5849
132,82.2500
133,79.0067
134,75.1387
135,73.7638
136,71.8140
137,73.3367
138,77.0780
139,77.3629
140,74.9504
141,74.1625
142,72.7596
143,72.8750
144,73.4959
145,70.7148
146,68.9806
147,68.1225
148,70.2955
149,71.0616
150,69.8980
151,71.5140
152,69.9545
153,70.5972
154,71.1562
155,69.0351
156,64.9174
157,64.7385
158,66.7634
159,65.3134
160,61.9256
161,60.8900
162,60.8944
163,64.4704
164,61.2531
165,58.5391
166,56.4964
167,57.5818
168,57.7893
169,59.3088
170,59.8512
171,59.0852
172,58.1818
173,55.3864
174,55.1098
175,52.9732
176,54.0000
